! This file stores the multi-frequency sweep values in Hz 
1	1.0
2	5.0
3	9.0
4	13.0
5	17.0
6	21.0
7	25.0
8	29.0
9	33.0
10	37.0
11	42.0
12	47.5
13	53.0
14	59.5
15	66.5
16	73.5
17	81.0
18	89.5
19	98.5
20	107.0
21	117.0
22	127.0
23	137.0
24	148.0
25	159.0
26	171.0
27	182.5
28	195.0
29	207.0
30	219.0
31	233.0
32	245.0
33	259.0
34	273.0
35	287.0
36	301.0
37	315.0
38	329.0
39	344.0
40	359.0
41	373.0
42	389.0
43	404.5
44	419.0
45	435.0
46	451.0
47	467.0
48	483.0
ENDFILE: