! This file stores the multi-frequency sweep values in Hz 
1	26.0
2	26.5
3	27.0
4	27.5
5	28.0
6	28.5
7	29.0
8	29.5
9	30.0
10	30.5
11	31.0
12	31.5
13	32.0
14	32.5
15	33.0
16	33.5
17	34.0
18	34.5
19	35.0
20	35.5
21	36.0
22	36.5
23	37.0
24	37.5
25	38.0
26	38.5
27	39.0
28	40.0
29	40.5
30	41.0
31	42.0
32	42.5
33	43.0
34	44.0
35	44.5
36	45.0
37	45.5
38	46.0
39	46.5
40	47.5
41	48.0
42	49.0
43	49.5
44	50.5
45	51.0
46	51.5
47	52.0
48	53.0
49	53.5
50	54.5
ENDFILE: