! This file stores the multi-frequency sweep values in Hz 
1	3.5
2	7.5
3	11.5
4	15.5
5	19.5
6	23.5
7	27.5
8	31.5
9	35.5
10	40.0
11	45.5
12	51.5
13	57.5
14	63.5
15	71.0
16	78.5
17	86.5
18	95.5
19	103.5
20	113.5
21	123.5
22	133.5
23	143.5
24	155.0
25	165.5
26	177.5
27	189.5
28	201.5
29	215.0
30	227.5
31	240.5
32	253.5
33	267.5
34	281.5
35	295.5
36	309.5
37	323.5
38	338.5
39	353.5
40	367.5
41	383.5
42	398.0
43	413.5
44	429.5
45	445.5
46	461.0
47	476.0
48	491.5
ENDFILE: