! This file stores the frequency swept values 
1	1.0
2	2.0
3	3.0
4	4.0
5	5.0
6	6.0
7	7.0
8	8.0
9	9.0
10	11.0
11	13.0
12	15.0
13	18.0
14	21.0
15	25.0
16	29.0
17	35.0
18	41.0
19	48.0
20	56.0
21	67.0
22	78.0
23	92.0
24	108.0
25	127.0
26	150.0
27	176.0
28	207.0
29	244.0
30	287.0
31	309.0
32	337.0
33	396.0
34	466.0
35	548.0
36	592.0
37	644.0
38	757.0
39	873.0
40	890.0
41	1047.0
42	1154.0
43	1231.0
44	1434.0
45	1447.0
46	1701.0
47	1715.0
48	2000.0
ENDFILE: