! This file stores the frequency swept values 
1	1.0
2	2.0
3	3.0
4	4.0
5	5.0
6	6.0
7	7.0
8	8.0
9	10.0
10	11.0
11	14.0
12	17.0
13	20.0
14	24.0
15	28.0
16	34.0
17	41.0
18	49.0
19	58.0
20	70.0
21	83.0
22	100.0
23	119.0
24	142.0
25	170.0
26	186.0
27	203.0
28	242.0
29	289.0
30	345.0
31	351.0
32	412.0
33	492.0
34	514.0
35	587.0
36	676.0
37	701.0
38	837.0
39	839.0
40	1000.0
ENDFILE: